room_temperature(K),290.15
water_volume(mL),500.0
solute_molarmass(g/mol),74.551
solute_mass(g),7.0105
R1(Omega),9.51
R2(Omega),9.52
t1(s),337.972
t2(s),463.488
current(A),1.43
time(s),Delta_T(K)
0.117,-0.000
0.898,-0.001
1.539,-0.001
2.322,-0.000
2.963,-0.000
3.746,0.001
4.386,0.001
5.168,-0.000
5.810,0.001
6.592,-0.000
7.231,-0.000
8.014,0.001
8.655,0.001
9.437,0.001
10.077,0.001
10.860,0.001
11.501,0.001
12.284,0.001
12.924,0.001
13.706,0.001
14.347,0.001
15.130,0.002
15.770,0.002
16.553,0.002
17.194,0.002
17.976,0.002
18.616,0.002
19.398,0.002
20.039,0.002
20.822,0.003
21.462,0.003
22.246,0.002
22.885,0.003
23.668,0.002
24.309,0.002
25.092,0.003
25.731,0.003
26.514,0.003
27.154,0.003
27.937,0.003
28.577,0.003
29.361,0.003
30.001,0.003
30.783,0.003
31.424,0.004
32.207,0.004
32.848,0.004
33.629,0.004
34.269,0.004
35.053,0.003
35.693,0.004
36.475,0.004
37.115,0.004
37.899,0.005
38.539,0.004
39.322,0.004
39.963,0.004
40.745,0.005
41.386,0.005
42.168,0.005
42.808,0.004
43.591,0.005
44.231,0.006
45.014,0.005
45.654,0.005
46.437,0.005
47.077,0.005
47.860,0.005
48.500,0.006
49.283,0.006
49.924,0.006
50.706,0.006
51.347,0.006
52.130,0.006
52.770,0.006
53.552,0.007
54.192,0.006
54.975,0.006
55.616,0.006
56.398,0.006
57.039,0.007
57.821,0.007
58.461,0.006
59.244,0.007
59.885,0.007
60.668,0.007
61.307,0.006
62.091,0.008
62.730,0.007
63.513,0.007
64.153,0.007
64.937,0.007
65.578,0.007
66.360,0.008
67.001,0.007
67.783,0.007
68.424,0.007
69.207,0.008
69.845,0.007
70.629,0.008
71.269,0.008
72.051,0.008
72.692,0.007
73.476,0.008
74.115,0.008
74.898,0.009
75.538,0.008
76.321,0.008
76.962,0.009
77.744,0.008
78.385,0.009
79.168,0.009
79.808,0.010
80.591,0.009
81.230,0.009
82.013,0.009
82.654,0.009
83.436,0.009
84.077,0.009
84.859,0.009
85.500,0.009
86.283,0.010
86.923,0.010
87.706,0.009
88.345,0.010
89.129,0.010
89.769,0.010
90.551,0.009
91.192,0.010
91.975,0.010
92.615,0.011
93.398,0.010
94.038,0.010
94.820,0.011
95.462,0.010
96.244,0.011
96.884,0.010
97.668,0.010
98.307,0.011
99.089,0.011
99.730,0.012
100.512,0.010
101.153,0.010
101.936,0.011
102.576,0.011
103.359,0.011
104.000,0.011
104.783,0.012
105.423,0.011
106.206,0.011
106.845,0.012
107.629,0.012
108.268,0.012
109.051,0.011
109.692,0.011
110.474,0.012
111.115,0.012
111.898,0.012
112.538,0.013
113.321,0.012
113.961,0.013
114.743,0.013
115.384,0.013
116.167,0.013
116.806,0.013
117.590,0.013
118.229,0.013
119.013,0.013
119.653,0.013
120.436,0.013
121.076,0.013
121.859,0.013
122.499,0.013
123.282,0.013
123.922,0.014
124.705,0.014
125.345,0.013
126.129,0.013
126.768,0.013
127.551,0.013
128.191,0.014
128.974,0.014
129.614,0.013
130.397,0.013
131.038,0.014
131.820,0.014
132.461,0.013
133.243,0.014
133.883,0.014
134.666,0.013
135.307,0.013
136.089,-0.001
136.730,-0.013
137.512,-0.049
138.152,-0.068
138.936,-0.105
139.576,-0.126
140.359,-0.165
141.000,-0.185
141.782,-0.224
142.422,-0.242
143.206,-0.280
143.845,-0.298
144.627,-0.333
145.268,-0.350
146.050,-0.382
146.692,-0.398
147.486,-0.428
148.125,-0.444
148.908,-0.473
149.549,-0.486
150.331,-0.514
150.973,-0.527
151.754,-0.552
152.395,-0.563
153.177,-0.586
153.819,-0.598
154.601,-0.620
155.242,-0.631
156.024,-0.651
156.664,-0.661
157.447,-0.680
158.087,-0.691
158.870,-0.708
159.510,-0.717
160.292,-0.734
160.933,-0.742
161.716,-0.758
162.357,-0.766
163.139,-0.780
163.780,-0.787
164.563,-0.802
165.203,-0.808
165.986,-0.821
166.625,-0.827
167.409,-0.840
168.049,-0.845
168.831,-0.856
169.471,-0.862
170.254,-0.873
170.895,-0.877
171.678,-0.887
172.318,-0.892
173.100,-0.901
173.741,-0.904
174.524,-0.914
175.163,-0.918
175.947,-0.925
176.587,-0.929
177.369,-0.936
178.010,-0.940
178.792,-0.946
179.434,-0.949
180.215,-0.956
180.856,-0.959
181.639,-0.965
182.280,-0.968
183.062,-0.973
183.702,-0.975
184.486,-0.980
185.125,-0.983
185.908,-0.987
186.548,-0.990
187.331,-0.993
187.971,-0.996
188.754,-0.999
189.394,-1.001
190.177,-1.004
190.818,-1.006
191.600,-1.008
192.241,-1.010
193.023,-1.012
193.663,-1.013
194.447,-1.016
195.086,-1.017
195.870,-1.019
196.510,-1.020
197.292,-1.021
197.933,-1.022
198.715,-1.024
199.356,-1.024
200.139,-1.027
200.779,-1.026
201.561,-1.028
202.201,-1.028
202.984,-1.029
203.625,-1.030
204.408,-1.030
205.048,-1.030
205.830,-1.032
206.471,-1.031
207.254,-1.032
207.894,-1.032
208.676,-1.033
209.317,-1.033
210.100,-1.033
210.739,-1.033
211.523,-1.034
212.163,-1.034
212.945,-1.034
213.586,-1.034
214.368,-1.034
215.009,-1.034
215.792,-1.034
216.433,-1.034
217.215,-1.035
217.856,-1.035
218.638,-1.035
219.279,-1.035
220.061,-1.035
220.701,-1.035
221.484,-1.035
222.124,-1.035
222.907,-1.035
223.548,-1.035
224.330,-1.035
224.970,-1.035
225.754,-1.035
226.394,-1.035
227.176,-1.035
227.817,-1.035
228.599,-1.034
229.239,-1.034
230.023,-1.034
230.662,-1.035
231.445,-1.034
232.085,-1.034
232.869,-1.034
233.509,-1.034
234.291,-1.034
234.933,-1.033
235.714,-1.034
236.355,-1.033
237.137,-1.033
237.777,-1.033
238.561,-1.033
239.200,-1.033
239.984,-1.033
240.624,-1.033
241.406,-1.033
242.047,-1.033
242.830,-1.032
243.470,-1.032
244.253,-1.032
244.893,-1.032
245.676,-1.032
246.316,-1.032
247.099,-1.032
247.738,-1.032
248.522,-1.032
249.162,-1.032
249.945,-1.032
250.585,-1.031
251.368,-1.031
252.008,-1.031
252.791,-1.031
253.432,-1.031
254.214,-1.031
254.855,-1.030
255.637,-1.030
256.277,-1.030
257.061,-1.030
257.700,-1.030
258.483,-1.030
259.124,-1.030
259.906,-1.030
260.546,-1.029
261.329,-1.029
261.970,-1.029
262.752,-1.030
263.393,-1.029
264.175,-1.029
264.815,-1.029
265.599,-1.029
266.239,-1.029
267.021,-1.029
267.662,-1.029
268.444,-1.028
269.085,-1.028
269.867,-1.028
270.509,-1.028
271.291,-1.028
271.931,-1.028
272.713,-1.028
273.354,-1.027
274.137,-1.027
274.777,-1.027
275.559,-1.027
276.200,-1.027
276.983,-1.028
277.623,-1.028
278.406,-1.027
279.046,-1.027
279.828,-1.026
280.469,-1.027
281.252,-1.026
281.892,-1.026
282.675,-1.026
283.315,-1.026
284.099,-1.026
284.738,-1.026
285.521,-1.026
286.161,-1.026
286.944,-1.025
287.584,-1.025
288.367,-1.025
289.007,-1.025
289.790,-1.025
290.430,-1.025
291.213,-1.025
291.853,-1.025
292.636,-1.025
293.276,-1.025
294.059,-1.024
294.699,-1.024
295.482,-1.024
296.122,-1.024
296.905,-1.024
297.546,-1.024
298.328,-1.024
298.969,-1.024
299.751,-1.024
300.391,-1.024
301.175,-1.023
301.815,-1.023
302.597,-1.023
303.238,-1.023
304.020,-1.023
304.660,-1.023
305.443,-1.022
306.083,-1.023
306.867,-1.023
307.507,-1.022
308.290,-1.023
308.931,-1.022
309.713,-1.022
310.353,-1.022
311.135,-1.021
311.775,-1.021
312.558,-1.022
313.199,-1.022
313.981,-1.021
314.622,-1.021
315.405,-1.021
316.046,-1.021
316.828,-1.021
317.468,-1.021
318.251,-1.021
318.891,-1.021
319.674,-1.021
320.314,-1.021
321.097,-1.021
321.737,-1.021
322.520,-1.020
323.160,-1.020
323.943,-1.020
324.583,-1.020
325.366,-1.020
326.007,-1.020
326.789,-1.020
327.428,-1.020
328.212,-1.019
328.852,-1.020
329.635,-1.019
330.275,-1.019
331.058,-1.019
331.698,-1.019
332.481,-1.018
333.122,-1.019
333.904,-1.019
334.544,-1.018
335.328,-1.018
335.967,-1.018
336.750,-1.018
337.390,-1.018
338.174,-1.018
338.814,-1.017
339.596,-1.017
340.237,-1.018
341.019,-1.018
341.659,-1.018
342.442,-1.018
343.083,-1.018
343.866,-1.016
344.506,-1.017
345.289,-1.017
345.928,-1.016
346.712,-1.016
347.351,-1.015
348.134,-1.015
348.775,-1.015
349.558,-1.014
350.198,-1.014
350.980,-1.012
351.621,-1.012
352.404,-1.011
353.043,-1.010
353.828,-1.008
354.467,-1.008
355.249,-1.006
355.889,-1.005
356.673,-1.002
357.313,-1.001
358.095,-0.999
358.736,-0.999
359.519,-0.995
360.159,-0.994
360.942,-0.992
361.582,-0.990
362.366,-0.987
363.005,-0.986
363.787,-0.982
364.428,-0.981
365.211,-0.978
365.851,-0.976
366.634,-0.971
367.275,-0.970
368.056,-0.966
368.697,-0.964
369.481,-0.960
370.121,-0.958
370.903,-0.953
371.543,-0.951
372.325,-0.947
372.966,-0.945
373.748,-0.940
374.390,-0.937
375.172,-0.932
375.812,-0.930
376.594,-0.925
377.236,-0.923
378.018,-0.917
378.659,-0.914
379.442,-0.909
380.081,-0.906
380.865,-0.901
381.504,-0.899
382.287,-0.894
382.927,-0.891
383.710,-0.884
384.351,-0.882
385.133,-0.876
385.774,-0.873
386.556,-0.867
387.197,-0.864
387.979,-0.858
388.619,-0.855
389.403,-0.848
390.042,-0.845
390.825,-0.839
391.465,-0.836
392.248,-0.830
392.889,-0.826
393.671,-0.820
394.312,-0.817
395.094,-0.811
395.735,-0.807
396.517,-0.800
397.157,-0.797
397.941,-0.790
398.580,-0.788
399.364,-0.781
400.004,-0.778
400.787,-0.770
401.427,-0.767
402.209,-0.761
402.850,-0.757
403.632,-0.750
404.274,-0.747
405.056,-0.739
405.695,-0.736
406.479,-0.729
407.118,-0.726
407.901,-0.719
408.542,-0.716
409.324,-0.708
409.965,-0.705
410.748,-0.698
411.388,-0.693
412.171,-0.688
412.812,-0.683
413.593,-0.676
414.234,-0.673
415.017,-0.664
415.657,-0.661
416.440,-0.655
417.079,-0.651
417.862,-0.644
418.503,-0.640
419.285,-0.633
419.927,-0.629
420.710,-0.622
421.349,-0.617
422.132,-0.610
422.771,-0.607
423.555,-0.600
424.195,-0.595
424.978,-0.588
425.618,-0.585
426.401,-0.577
427.042,-0.574
427.824,-0.565
428.464,-0.561
429.248,-0.554
429.888,-0.550
430.671,-0.543
431.310,-0.539
432.094,-0.531
432.734,-0.528
433.516,-0.520
434.156,-0.517
434.939,-0.510
435.579,-0.505
436.363,-0.497
437.003,-0.494
437.785,-0.487
438.426,-0.482
439.209,-0.475
439.849,-0.471
440.631,-0.464
441.272,-0.460
442.054,-0.452
442.695,-0.448
443.477,-0.440
444.117,-0.436
444.901,-0.429
445.541,-0.424
446.311,-0.417
446.951,-0.413
447.734,-0.405
448.375,-0.401
449.158,-0.393
449.798,-0.389
450.581,-0.382
451.222,-0.378
452.004,-0.370
452.644,-0.366
453.426,-0.359
454.066,-0.354
454.850,-0.347
455.490,-0.343
456.272,-0.335
456.913,-0.331
457.696,-0.323
458.337,-0.319
459.119,-0.311
459.759,-0.308
460.541,-0.299
461.182,-0.295
461.966,-0.288
462.604,-0.284
463.388,-0.276
464.028,-0.272
464.811,-0.264
465.451,-0.265
466.234,-0.252
466.875,-0.249
467.657,-0.241
468.297,-0.237
469.080,-0.230
469.720,-0.225
470.503,-0.219
471.142,-0.215
471.925,-0.207
472.566,-0.204
473.348,-0.197
473.990,-0.193
474.772,-0.187
475.413,-0.184
476.195,-0.177
476.836,-0.174
477.618,-0.168
478.258,-0.165
479.040,-0.158
479.681,-0.155
480.464,-0.150
481.105,-0.147
481.887,-0.141
482.528,-0.139
483.311,-0.134
483.950,-0.132
484.734,-0.127
485.374,-0.125
486.155,-0.120
486.797,-0.117
487.579,-0.113
488.219,-0.110
489.002,-0.107
489.643,-0.105
490.426,-0.101
491.066,-0.098
491.848,-0.094
492.489,-0.093
493.272,-0.089
493.911,-0.088
494.694,-0.084
495.335,-0.083
496.117,-0.079
496.758,-0.078
497.540,-0.075
498.181,-0.073
498.963,-0.071
499.603,-0.070
500.386,-0.067
501.027,-0.065
501.809,-0.062
502.450,-0.061
503.232,-0.059
503.873,-0.058
504.655,-0.056
505.295,-0.055
506.078,-0.052
506.719,-0.051
507.502,-0.049
508.142,-0.048
508.925,-0.046
509.565,-0.045
510.348,-0.043
510.987,-0.042
511.769,-0.040
512.410,-0.040
513.193,-0.038
513.833,-0.037
514.617,-0.035
515.257,-0.035
516.040,-0.033
516.681,-0.032
517.463,-0.031
518.104,-0.030
518.886,-0.028
519.526,-0.028
520.309,-0.026
520.949,-0.026
521.732,-0.024
522.372,-0.024
523.155,-0.023
523.795,-0.022
524.577,-0.021
525.219,-0.020
526.001,-0.019
526.641,-0.018
527.424,-0.018
528.064,-0.017
528.847,-0.016
529.487,-0.015
530.270,-0.014
530.910,-0.013
531.693,-0.013
532.333,-0.012
533.116,-0.011
533.757,-0.011
534.539,-0.010
535.179,-0.010
535.962,-0.009
536.602,-0.008
537.385,-0.008
538.026,-0.007
538.807,-0.006
539.448,-0.005
540.231,-0.006
540.871,-0.005
541.655,-0.004
542.295,-0.004
543.077,-0.002
543.717,-0.003
544.500,-0.002
545.140,-0.002
545.923,-0.001
546.563,-0.000
547.346,-0.000
547.986,0.001
548.769,0.001
549.409,0.001
550.192,0.002
550.833,0.002
551.615,0.003
552.255,0.003
553.038,0.004
553.678,0.004
554.461,0.004
555.101,0.005
555.883,0.005
556.525,0.006
557.308,0.006
557.947,0.006
558.730,0.007
559.370,0.006
560.154,0.008
560.793,0.008
561.575,0.008
562.216,0.009
562.999,0.008
563.640,0.009
564.423,0.009
565.063,0.010
565.846,0.010
566.486,0.011
567.269,0.011
567.908,0.011
568.692,0.012
569.331,0.012
570.114,0.013
570.755,0.013
571.537,0.013
572.178,0.013
572.961,0.013
573.601,0.013
574.384,0.014
575.024,0.014
575.807,0.014
576.446,0.014
577.229,0.015
577.870,0.015
578.652,0.016
579.292,0.015
580.076,0.016
580.715,0.016
581.498,0.017
582.139,0.016
582.922,0.018
583.562,0.018
584.345,0.017
584.985,0.017
585.768,0.018
586.408,0.018
587.190,0.017
587.831,0.018
588.614,0.018
589.255,0.019
590.037,0.019
590.677,0.019
591.460,0.019
592.099,0.020
592.883,0.019
593.523,0.020
594.306,0.021
594.947,0.021
595.729,0.020
596.369,0.021
597.152,0.021
597.792,0.021
598.575,0.021
599.215,0.021
599.997,0.022
600.638,0.021
601.421,0.023
602.061,0.023
602.844,0.022
603.484,0.023
604.267,0.023
604.907,0.022
605.690,0.023
606.331,0.023
607.113,0.024
607.753,0.024
608.536,0.024
609.176,0.024
609.959,0.025
610.600,0.024
611.382,0.024
612.022,0.025
612.805,0.025
613.446,0.025
614.228,0.025
614.868,0.025
615.651,0.026
616.291,0.026
617.075,0.026
617.715,0.026
618.496,0.026
619.137,0.026
619.920,0.025
620.560,0.026
621.343,0.027
621.984,0.027
622.766,0.027
623.407,0.027
624.189,0.027
624.830,0.027
625.613,0.027
626.252,0.027
627.035,0.028
627.675,0.029
628.459,0.028
629.099,0.028
629.881,0.029
630.521,0.028
631.304,0.029
631.945,0.028
632.727,0.029
633.368,0.029
634.151,0.029
634.790,0.029
635.574,0.029
636.214,0.030
636.996,0.030
637.637,0.030
638.419,0.031
639.060,0.030
639.842,0.030
640.483,0.031
641.266,0.030
641.906,0.030
642.689,0.031
643.329,0.030
644.111,0.031
644.752,0.031
645.534,0.031
646.175,0.031
646.958,0.031
647.597,0.031
648.381,0.031
649.021,0.032
649.804,0.032
650.445,0.032
651.227,0.032
651.866,0.032
652.650,0.032
653.290,0.032
654.073,0.033
654.713,0.032
655.496,0.033
656.136,0.032
656.918,0.033
657.559,0.034
658.342,0.033
658.983,0.034
659.765,0.033
660.405,0.033
661.188,0.034
661.828,0.034
662.610,0.034
663.251,0.034
664.034,0.034
664.674,0.034
665.456,0.034
666.098,0.034
666.880,0.034
667.519,0.034
668.303,0.035
668.943,0.035
669.726,0.035
670.367,0.035
671.149,0.035
671.790,0.035
672.572,0.035
673.213,0.035
673.996,0.035
674.635,0.035
675.419,0.035
676.058,0.036
676.841,0.036
677.481,0.036
678.265,0.035
678.904,0.036
679.687,0.037
680.328,0.037
681.111,0.036
681.751,0.036
682.534,0.037
683.175,0.036
683.957,0.037
684.596,0.037
685.380,0.037
686.020,0.037
686.802,0.038
687.443,0.038
688.225,0.038
688.866,0.038
689.649,0.037
690.289,0.038
691.071,0.038
691.712,0.038
692.494,0.038
693.135,0.038
693.918,0.038
694.557,0.039
695.341,0.038
695.981,0.038
696.764,0.038
697.404,0.039
698.186,0.039
698.826,0.039
699.610,0.039
700.250,0.039
701.033,0.040
701.673,0.039
702.456,0.040
703.095,0.039
703.879,0.039
704.519,0.039
705.302,0.040
705.942,0.040
706.724,0.040
707.365,0.040
708.148,0.040
708.789,0.040
709.570,0.040
710.211,0.040
710.995,0.040
711.634,0.041
712.418,0.040
713.057,0.040
713.841,0.041
714.480,0.041
715.262,0.041
715.904,0.040
716.686,0.041
717.327,0.041
718.109,0.041
718.750,0.041
719.532,0.041
720.172,0.041
720.955,0.041
721.595,0.041
722.378,0.041
723.019,0.041
723.801,0.042
724.441,0.042
725.224,0.042
725.865,0.041
726.648,0.042
727.287,0.042
728.071,0.042
728.711,0.043
729.493,0.042
730.133,0.043
730.916,0.042
731.556,0.043
732.339,0.044
732.980,0.043
733.762,0.043
734.403,0.043
735.185,0.043
735.826,0.043
736.608,0.043
737.248,0.043
738.031,0.043
738.672,0.044
739.454,0.044
740.094,0.044
740.877,0.044
741.518,0.044
742.301,0.044
742.941,0.044
743.724,0.044
744.364,0.044
745.148,0.045
745.788,0.044
746.570,0.044
747.210,0.044
747.993,0.044
748.632,0.045
749.416,0.045
750.056,0.045
750.839,0.045
751.479,0.045
752.262,0.045
752.902,0.045
753.684,0.046
754.325,0.045
755.108,0.045
755.748,0.046
756.531,0.046
757.171,0.045
757.953,0.046
758.594,0.046
759.377,0.046
760.018,0.046
760.800,0.047
761.441,0.047
762.223,0.046
762.864,0.045
763.646,0.046
764.286,0.047
765.070,0.047
765.709,0.047
766.491,0.046
767.132,0.047
767.915,0.048
768.556,0.047
769.337,0.048
769.978,0.047
770.762,0.048
771.401,0.048
772.184,0.047
772.825,0.048
773.608,0.048
774.248,0.048
775.030,0.048
775.671,0.047
776.453,0.048
777.094,0.048
777.876,0.049
778.516,0.048
779.299,0.048
779.939,0.049
780.723,0.049
781.362,0.049
782.146,0.048
782.785,0.049
783.567,0.049
784.208,0.049
784.991,0.049
785.632,0.049
786.414,0.050
787.056,0.049
787.837,0.049
788.478,0.049
789.261,0.049
789.901,0.050
790.683,0.049
791.324,0.049
792.106,0.050
792.747,0.050
793.530,0.050
794.169,0.051
794.952,0.050
795.592,0.049
796.375,0.051
797.016,0.051
797.799,0.050
798.439,0.050
799.222,0.051
799.861,0.050
800.644,0.051
801.285,0.051
802.068,0.051
802.708,0.051
803.491,0.051
804.132,0.050
804.914,0.051
805.554,0.051
806.337,0.051
806.976,0.051
807.760,0.051
808.400,0.052
809.183,0.052
809.823,0.052
810.606,0.052
811.246,0.052
812.029,0.052
812.669,0.051
813.452,0.052
814.093,0.052
814.875,0.052
815.515,0.053
816.298,0.052
816.938,0.052
817.721,0.052
818.361,0.052
819.144,0.052
819.785,0.053
820.567,0.052
821.208,0.052
821.990,0.053
822.631,0.053
823.413,0.053
824.054,0.053
824.836,0.053
825.476,0.053
826.259,0.054
826.900,0.053
827.682,0.053
828.323,0.054
829.105,0.054
829.746,0.054
830.528,0.054
831.169,0.054
831.952,0.053
832.592,0.054
833.375,0.054
834.015,0.054
834.798,0.054
835.437,0.054
836.220,0.054
836.860,0.054
837.644,0.055
838.285,0.055
839.067,0.055
839.707,0.055
840.490,0.054
841.130,0.054
841.913,0.055
842.553,0.055
843.336,0.055
843.976,0.055
844.759,0.055
845.400,0.055
846.182,0.055
846.822,0.056
847.605,0.055
848.245,0.056
849.028,0.056
849.668,0.056
850.452,0.056
851.091,0.056
851.874,0.056
852.514,0.056
853.296,0.056
853.937,0.056
854.719,0.056
855.361,0.056
856.143,0.056
856.783,0.056
857.566,0.056
858.206,0.057
858.989,0.057
859.628,0.057
860.412,0.058
861.052,0.056
861.835,0.056
862.475,0.058
863.257,0.057
863.899,0.056
864.681,0.058
865.322,0.057
866.104,0.058
866.745,0.058
867.528,0.058
868.167,0.057
868.951,0.058
869.590,0.057
870.373,0.057
871.013,0.057
871.796,0.057
872.436,0.058
873.219,0.058
873.860,0.058
874.642,0.058
875.283,0.058
876.066,0.058
876.706,0.059
877.488,0.060
878.128,0.058
878.911,0.058
879.551,0.059
880.335,0.058
880.975,0.059
881.757,0.059
882.398,0.060
883.180,0.059
883.821,0.059
884.604,0.059
885.245,0.060
886.027,0.060
886.667,0.059
887.449,0.060
888.090,0.060
888.872,0.059
889.513,0.060
890.296,0.059
890.936,0.060
891.719,0.060
892.359,0.060
893.142,0.060
893.783,0.059
894.565,0.061
895.205,0.060
895.989,0.060
896.628,0.060
897.410,0.061
898.051,0.060
898.833,0.061
899.474,0.060
900.257,0.061
900.898,0.061
901.679,0.061
902.321,0.061
903.103,0.061
903.743,0.061
904.527,0.061
905.166,0.061
905.948,0.061
906.589,0.062
907.372,0.061
908.013,0.062
908.795,0.061
909.436,0.062
910.219,0.062
910.859,0.061
911.642,0.062
912.281,0.062
913.065,0.062
913.704,0.062
914.486,0.062
915.127,0.062
915.910,0.062
916.550,0.062
917.333,0.062
917.974,0.063
918.756,0.062
919.397,0.062
920.179,0.063
920.820,0.064
921.603,0.063
922.242,0.063
923.025,0.063
923.666,0.063
924.448,0.063
925.089,0.063
925.872,0.063
926.512,0.063
927.294,0.064
927.935,0.063
928.718,0.063
929.359,0.064
930.141,0.064
930.780,0.063
931.564,0.064
932.204,0.064
932.986,0.064
933.627,0.064
934.410,0.064
935.050,0.064
935.833,0.064
936.473,0.064
937.256,0.064
937.896,0.064
938.679,0.065
939.318,0.064
940.103,0.064
940.741,0.064
941.524,0.065
942.165,0.065
942.949,0.065
943.588,0.065
944.371,0.065
945.012,0.065
945.794,0.065
946.434,0.065
947.217,0.065
947.857,0.065
948.641,0.065
949.281,0.065
950.063,0.066
950.703,0.066
951.486,0.066
952.126,0.066
952.909,0.066
953.549,0.066
954.332,0.066
954.973,0.066
955.755,0.066
956.395,0.066
957.179,0.067
957.819,0.066
958.601,0.066
959.242,0.067
960.023,0.066
960.665,0.067
961.447,0.066
962.088,0.067
962.871,0.066
963.511,0.066
964.293,0.066
964.934,0.066
965.717,0.067
966.356,0.067
967.139,0.067
967.779,0.068
968.563,0.067
969.203,0.067
969.986,0.066
970.626,0.067
971.409,0.067
972.049,0.068
972.832,0.068
973.473,0.068
974.256,0.067
974.895,0.067
975.677,0.068
976.318,0.068
977.100,0.067
977.741,0.068
978.523,0.068
979.165,0.068
979.947,0.069
980.587,0.068
981.370,0.068
982.011,0.068
982.793,0.069
983.433,0.068
984.216,0.068
984.856,0.069
985.639,0.069
986.279,0.069
987.062,0.068
987.702,0.069
988.485,0.069
989.125,0.070
989.908,0.069
990.549,0.069
991.331,0.069
991.971,0.070
992.755,0.070
993.395,0.069
994.177,0.070
994.817,0.069
995.600,0.070
996.240,0.069
