room_temperature(K),290.15
water_volume(mL),500.0
solute_molarmass(g/mol),74.551
solute_mass(g),13.0288
R1(Omega),9.52
R2(Omega),9.52
t1(s),360.377
t2(s),557.214
current(A),1.43
time(s),Delta_T(K)
0.702,0.070
1.342,0.071
2.125,0.070
2.766,0.070
3.548,0.071
4.189,0.071
4.971,0.071
5.611,0.071
6.394,0.071
7.034,0.071
7.818,0.071
8.457,0.071
9.240,0.071
9.881,0.071
10.663,0.072
11.304,0.071
12.086,0.071
12.727,0.071
13.510,0.071
14.150,0.071
14.932,0.071
15.572,0.071
16.355,0.072
16.995,0.072
17.778,0.072
18.419,0.072
19.201,0.073
19.842,0.072
20.625,0.071
21.266,0.072
22.048,0.072
22.688,0.073
23.471,0.072
24.110,0.072
24.894,0.072
25.534,0.072
26.316,0.072
26.957,0.072
27.740,0.073
28.381,0.072
29.163,0.072
29.803,0.073
30.586,0.073
31.226,0.072
32.009,0.074
32.650,0.074
33.432,0.074
34.072,0.073
34.855,0.073
35.495,0.073
36.277,0.073
36.918,0.074
37.700,0.074
38.342,0.074
39.124,0.074
39.764,0.074
40.547,0.074
41.188,0.074
41.971,0.074
42.610,0.074
43.394,0.075
44.033,0.074
44.816,0.074
45.457,0.075
46.239,0.074
46.880,0.074
47.662,0.075
48.303,0.075
49.085,0.075
49.726,0.075
50.508,0.075
51.148,0.075
51.932,0.076
52.572,0.075
53.354,0.075
53.994,0.075
54.777,0.076
55.417,0.075
56.200,0.076
56.841,0.075
57.624,0.076
58.264,0.076
59.047,0.076
59.686,0.076
60.470,0.076
61.110,0.076
61.892,0.076
62.533,0.076
63.316,0.076
63.956,0.076
64.739,0.076
65.379,0.076
66.162,0.077
66.802,0.076
67.585,0.076
68.225,0.076
69.008,0.077
69.648,0.077
70.431,0.077
71.071,0.077
71.854,0.077
72.495,0.077
73.277,0.077
73.917,0.077
74.700,0.077
75.340,0.077
76.123,0.078
76.764,0.078
77.546,0.077
78.186,0.077
78.969,0.077
79.608,0.078
80.391,0.078
81.032,0.078
81.815,0.078
82.456,0.078
83.238,0.078
83.878,0.078
84.661,0.078
85.302,0.078
86.084,0.078
86.725,0.077
87.507,0.079
88.147,0.079
88.930,0.079
89.570,0.079
90.353,0.079
90.993,0.079
91.776,0.079
92.417,0.079
93.199,0.079
93.841,0.079
94.623,0.079
95.263,0.079
96.046,0.079
96.685,0.079
97.469,0.079
98.108,0.079
98.891,0.079
99.532,0.080
100.315,0.080
100.955,0.080
101.737,0.080
102.378,0.080
103.160,0.080
103.801,0.080
104.584,0.080
105.223,0.080
106.007,0.080
106.647,0.080
107.430,0.081
108.070,0.080
108.852,0.080
109.494,0.080
110.276,0.080
110.917,0.081
111.698,0.081
112.339,0.081
113.122,0.081
113.762,0.081
114.545,0.081
115.185,0.081
115.967,0.081
116.608,0.081
117.390,0.082
118.031,0.082
118.814,0.081
119.455,0.082
120.237,0.082
120.878,0.081
121.660,0.082
122.301,0.082
123.083,0.082
123.724,0.082
124.506,0.082
125.147,0.082
125.929,0.082
126.569,0.082
127.353,0.083
127.993,0.082
128.775,0.082
129.415,0.083
130.199,0.083
130.839,0.083
131.622,0.083
132.262,0.082
133.045,0.083
133.685,0.083
134.467,0.083
135.108,0.083
135.891,0.083
136.531,0.084
137.314,0.083
137.954,0.083
138.736,0.083
139.377,0.083
140.160,0.083
140.799,0.083
141.582,0.084
142.222,0.084
143.005,0.084
143.646,0.084
144.429,0.084
145.069,0.084
145.852,0.084
146.492,0.083
147.274,0.084
147.916,0.084
148.698,0.084
149.338,0.084
150.121,0.084
150.761,0.085
151.544,0.084
152.184,0.084
152.966,0.084
153.608,0.084
154.389,0.085
155.031,0.084
155.813,0.085
156.453,0.085
157.236,0.079
157.877,0.066
158.660,0.022
159.299,-0.001
160.081,-0.052
160.722,-0.081
161.504,-0.141
162.146,-0.173
162.928,-0.236
163.569,-0.267
164.351,-0.331
164.991,-0.363
165.786,-0.424
166.426,-0.457
167.209,-0.518
167.849,-0.550
168.632,-0.612
169.273,-0.641
170.055,-0.701
170.696,-0.729
171.478,-0.785
172.118,-0.812
172.901,-0.867
173.541,-0.893
174.323,-0.942
174.965,-0.967
175.747,-1.014
176.388,-1.038
177.170,-1.082
177.811,-1.104
178.594,-1.145
179.234,-1.165
180.016,-1.203
180.656,-1.222
181.440,-1.257
182.079,-1.274
182.862,-1.307
183.503,-1.323
184.285,-1.354
184.926,-1.368
185.708,-1.397
186.349,-1.410
187.144,-1.437
187.784,-1.449
188.567,-1.473
189.207,-1.485
189.989,-1.506
190.630,-1.517
191.413,-1.538
192.053,-1.547
192.836,-1.565
193.476,-1.574
194.259,-1.591
194.899,-1.598
195.681,-1.613
196.321,-1.620
197.104,-1.634
197.745,-1.640
198.528,-1.653
199.168,-1.658
199.951,-1.669
200.592,-1.674
201.373,-1.685
202.014,-1.689
202.797,-1.698
203.437,-1.703
204.220,-1.710
204.860,-1.715
205.642,-1.721
206.284,-1.725
207.066,-1.731
207.707,-1.733
208.489,-1.739
209.129,-1.742
209.912,-1.747
210.553,-1.749
211.335,-1.753
211.975,-1.755
212.758,-1.758
213.398,-1.761
214.181,-1.764
214.822,-1.765
215.604,-1.767
216.244,-1.769
217.028,-1.772
217.668,-1.773
218.451,-1.774
219.090,-1.775
219.874,-1.777
220.514,-1.778
221.296,-1.780
221.936,-1.780
222.719,-1.782
223.360,-1.782
224.142,-1.783
224.783,-1.784
225.566,-1.784
226.206,-1.785
226.989,-1.786
227.629,-1.786
228.412,-1.786
229.052,-1.786
229.835,-1.787
230.475,-1.788
231.257,-1.788
231.898,-1.788
232.680,-1.788
233.321,-1.788
234.103,-1.789
234.744,-1.789
235.527,-1.789
236.167,-1.789
236.951,-1.789
237.590,-1.789
238.374,-1.789
239.013,-1.789
239.795,-1.788
240.435,-1.789
241.219,-1.789
241.859,-1.789
242.642,-1.789
243.283,-1.789
244.065,-1.789
244.705,-1.789
245.488,-1.788
246.128,-1.788
246.911,-1.788
247.551,-1.788
248.334,-1.788
248.974,-1.788
249.757,-1.788
250.397,-1.788
251.180,-1.788
251.821,-1.788
252.603,-1.787
253.243,-1.787
254.026,-1.787
254.667,-1.787
255.450,-1.786
256.089,-1.787
256.872,-1.787
257.513,-1.787
258.296,-1.786
258.935,-1.786
259.718,-1.786
260.359,-1.786
261.141,-1.786
261.782,-1.786
262.564,-1.786
263.205,-1.786
263.987,-1.785
264.627,-1.786
265.411,-1.785
266.051,-1.784
266.834,-1.785
267.473,-1.784
268.257,-1.784
268.897,-1.784
269.679,-1.783
270.320,-1.784
271.103,-1.783
271.744,-1.784
272.526,-1.783
273.165,-1.784
273.949,-1.783
274.589,-1.783
275.371,-1.783
276.012,-1.783
276.794,-1.783
277.435,-1.783
278.218,-1.782
278.858,-1.783
279.641,-1.782
280.282,-1.782
281.064,-1.781
281.705,-1.781
282.487,-1.781
283.127,-1.782
283.910,-1.781
284.551,-1.781
285.332,-1.781
285.974,-1.781
286.756,-1.780
287.397,-1.781
288.180,-1.780
288.820,-1.780
289.602,-1.780
290.242,-1.780
291.026,-1.780
291.666,-1.779
292.448,-1.780
293.089,-1.779
293.872,-1.779
294.511,-1.779
295.295,-1.779
295.934,-1.779
296.717,-1.778
297.358,-1.778
298.140,-1.778
298.781,-1.778
299.564,-1.778
300.204,-1.777
300.986,-1.778
301.627,-1.778
302.409,-1.778
303.050,-1.777
303.832,-1.777
304.472,-1.777
305.256,-1.777
305.897,-1.776
306.679,-1.776
307.319,-1.776
308.102,-1.775
308.742,-1.775
309.525,-1.776
310.164,-1.776
310.947,-1.776
311.588,-1.776
312.371,-1.775
313.011,-1.775
313.794,-1.775
314.434,-1.775
315.217,-1.775
315.858,-1.775
316.640,-1.774
317.280,-1.775
318.063,-1.774
318.703,-1.774
319.486,-1.774
320.126,-1.774
320.909,-1.773
321.549,-1.773
322.332,-1.774
322.972,-1.773
323.755,-1.773
324.396,-1.773
325.178,-1.773
325.818,-1.773
326.601,-1.773
327.241,-1.773
328.024,-1.772
328.664,-1.772
329.447,-1.772
330.087,-1.772
330.871,-1.771
331.511,-1.771
332.293,-1.771
332.934,-1.771
333.716,-1.772
334.357,-1.771
335.139,-1.771
335.779,-1.771
336.562,-1.770
337.202,-1.770
337.986,-1.770
338.626,-1.769
339.409,-1.770
340.049,-1.769
340.832,-1.770
341.472,-1.770
342.254,-1.770
342.895,-1.770
343.678,-1.769
344.317,-1.769
345.100,-1.769
345.741,-1.769
346.523,-1.769
347.164,-1.769
347.947,-1.768
348.587,-1.769
349.370,-1.768
350.010,-1.768
350.793,-1.768
351.433,-1.768
352.216,-1.767
352.855,-1.767
353.638,-1.767
354.278,-1.767
355.061,-1.767
355.702,-1.766
356.485,-1.767
357.125,-1.767
357.908,-1.767
358.548,-1.767
359.330,-1.767
359.971,-1.766
360.755,-1.766
361.394,-1.765
362.177,-1.766
362.816,-1.765
363.599,-1.765
364.240,-1.765
365.023,-1.765
365.664,-1.764
366.446,-1.764
367.087,-1.763
367.869,-1.763
368.510,-1.763
369.292,-1.762
369.932,-1.761
370.715,-1.760
371.355,-1.759
372.137,-1.757
372.779,-1.757
373.561,-1.755
374.201,-1.754
374.984,-1.751
375.624,-1.751
376.408,-1.749
377.047,-1.747
377.831,-1.744
378.471,-1.743
379.254,-1.741
379.894,-1.739
380.676,-1.737
381.316,-1.735
382.100,-1.731
382.740,-1.730
383.523,-1.726
384.163,-1.724
384.945,-1.721
385.586,-1.719
386.369,-1.715
387.009,-1.712
387.791,-1.709
388.432,-1.707
389.215,-1.702
389.855,-1.700
390.637,-1.696
391.278,-1.693
392.060,-1.689
392.701,-1.686
393.484,-1.681
394.125,-1.679
394.906,-1.674
395.547,-1.671
396.330,-1.665
396.970,-1.664
397.753,-1.658
398.393,-1.656
399.176,-1.650
399.816,-1.647
400.599,-1.642
401.239,-1.639
402.022,-1.633
402.663,-1.630
403.445,-1.624
404.086,-1.621
404.868,-1.615
405.509,-1.612
406.291,-1.606
406.932,-1.603
407.714,-1.596
408.354,-1.593
409.137,-1.587
409.777,-1.584
410.560,-1.577
411.201,-1.574
411.984,-1.568
412.624,-1.564
413.406,-1.558
414.046,-1.556
414.830,-1.549
415.470,-1.546
416.252,-1.539
416.892,-1.535
417.676,-1.529
418.316,-1.526
419.099,-1.518
419.739,-1.515
420.521,-1.508
421.162,-1.505
421.945,-1.498
422.585,-1.494
423.368,-1.488
424.008,-1.484
424.790,-1.477
425.431,-1.473
426.214,-1.466
426.854,-1.462
427.637,-1.456
428.277,-1.451
429.059,-1.445
429.700,-1.440
430.482,-1.434
431.123,-1.429
431.893,-1.422
432.534,-1.419
433.317,-1.412
433.958,-1.408
434.741,-1.400
435.380,-1.396
436.163,-1.389
436.803,-1.385
437.586,-1.378
438.226,-1.373
439.008,-1.367
439.732,-1.362
440.432,-1.355
441.073,-1.351
441.855,-1.343
442.496,-1.340
443.278,-1.333
443.918,-1.328
444.702,-1.321
445.341,-1.317
446.124,-1.311
446.765,-1.307
447.546,-1.298
448.187,-1.295
448.970,-1.288
449.611,-1.284
450.393,-1.277
451.034,-1.273
451.817,-1.266
452.456,-1.262
453.240,-1.254
453.880,-1.250
454.662,-1.243
455.302,-1.239
456.085,-1.231
456.726,-1.227
457.509,-1.219
458.149,-1.216
458.932,-1.207
459.572,-1.203
460.354,-1.196
460.996,-1.192
461.777,-1.183
462.418,-1.180
463.200,-1.172
463.841,-1.168
464.624,-1.161
465.264,-1.157
466.046,-1.150
466.687,-1.145
467.470,-1.138
468.110,-1.134
468.893,-1.126
469.533,-1.123
470.316,-1.114
470.956,-1.110
471.739,-1.103
472.379,-1.098
473.162,-1.091
473.803,-1.087
474.584,-1.079
475.225,-1.075
476.007,-1.067
476.649,-1.063
477.432,-1.055
478.072,-1.052
478.854,-1.043
479.494,-1.040
480.278,-1.032
480.918,-1.028
481.700,-1.019
482.340,-1.016
483.123,-1.008
483.763,-1.004
484.546,-0.997
485.187,-0.992
485.970,-0.984
486.609,-0.980
487.393,-0.973
488.032,-0.968
488.815,-0.960
489.455,-0.956
490.238,-0.948
490.878,-0.945
491.661,-0.937
492.302,-0.933
493.084,-0.924
493.724,-0.920
494.507,-0.911
495.148,-0.908
495.931,-0.900
496.571,-0.896
497.354,-0.889
497.993,-0.884
498.776,-0.877
499.417,-0.872
500.199,-0.864
500.840,-0.860
501.623,-0.853
502.263,-0.849
503.046,-0.841
503.686,-0.838
504.469,-0.829
505.110,-0.825
505.892,-0.817
506.532,-0.813
507.315,-0.805
507.955,-0.801
508.737,-0.794
509.379,-0.790
510.160,-0.781
510.801,-0.778
511.584,-0.771
512.224,-0.766
513.007,-0.759
513.648,-0.755
514.430,-0.746
515.069,-0.742
515.853,-0.735
516.493,-0.732
517.276,-0.724
517.916,-0.720
518.699,-0.712
519.339,-0.708
520.121,-0.701
520.762,-0.696
521.545,-0.688
522.186,-0.684
522.968,-0.676
523.608,-0.672
524.391,-0.663
525.031,-0.660
525.814,-0.652
526.455,-0.647
527.237,-0.640
527.878,-0.636
528.660,-0.628
529.301,-0.624
530.083,-0.616
530.724,-0.612
531.506,-0.604
532.147,-0.600
532.929,-0.592
533.569,-0.588
534.352,-0.579
534.992,-0.576
535.775,-0.568
536.415,-0.564
537.198,-0.556
537.839,-0.552
538.621,-0.543
539.262,-0.540
540.045,-0.532
540.685,-0.528
541.467,-0.520
542.107,-0.515
542.890,-0.508
543.531,-0.505
544.313,-0.496
544.954,-0.492
545.736,-0.485
546.377,-0.480
547.160,-0.472
547.801,-0.467
548.583,-0.459
549.222,-0.456
550.005,-0.447
550.646,-0.443
551.428,-0.435
552.069,-0.431
552.851,-0.423
553.479,-0.420
554.264,-0.411
554.903,-0.407
555.686,-0.399
556.327,-0.396
557.110,-0.388
557.750,-0.383
558.532,-0.376
559.172,-0.372
559.955,-0.364
560.595,-0.360
561.378,-0.352
562.019,-0.348
562.801,-0.341
563.441,-0.336
564.224,-0.329
564.865,-0.326
565.647,-0.319
566.287,-0.315
567.070,-0.309
567.710,-0.306
568.493,-0.298
569.133,-0.295
569.916,-0.289
570.557,-0.286
571.340,-0.280
571.979,-0.277
572.763,-0.272
573.402,-0.268
574.185,-0.263
574.826,-0.261
575.608,-0.255
576.249,-0.253
577.031,-0.248
577.672,-0.245
578.454,-0.242
579.096,-0.239
579.878,-0.235
580.517,-0.232
581.301,-0.228
581.941,-0.226
582.723,-0.222
583.364,-0.220
584.147,-0.217
584.787,-0.214
585.570,-0.212
586.210,-0.209
586.992,-0.207
587.634,-0.204
588.416,-0.201
589.057,-0.200
589.839,-0.196
590.479,-0.195
591.261,-0.192
591.902,-0.190
592.684,-0.188
593.325,-0.186
594.108,-0.184
594.748,-0.183
595.530,-0.181
596.171,-0.179
596.954,-0.177
597.593,-0.176
598.377,-0.173
599.017,-0.173
599.799,-0.170
600.440,-0.169
601.223,-0.167
601.863,-0.166
602.646,-0.164
603.286,-0.163
604.069,-0.161
604.709,-0.160
605.492,-0.158
606.133,-0.159
606.915,-0.156
607.555,-0.155
608.338,-0.153
608.979,-0.153
609.761,-0.151
610.401,-0.151
611.184,-0.149
611.824,-0.148
612.608,-0.147
613.248,-0.146
614.031,-0.145
614.670,-0.145
615.453,-0.143
616.093,-0.142
616.876,-0.141
617.517,-0.140
618.299,-0.139
618.939,-0.139
619.722,-0.138
620.363,-0.137
621.145,-0.136
621.786,-0.136
622.569,-0.135
623.209,-0.134
623.992,-0.134
624.632,-0.133
625.414,-0.132
626.054,-0.131
626.837,-0.131
627.478,-0.131
628.261,-0.129
628.901,-0.128
629.683,-0.129
630.324,-0.128
631.107,-0.126
631.747,-0.126
632.530,-0.125
633.170,-0.125
633.952,-0.124
634.593,-0.124
635.375,-0.123
636.016,-0.123
636.799,-0.122
637.438,-0.121
638.221,-0.121
638.862,-0.121
639.645,-0.120
640.284,-0.119
641.068,-0.120
641.708,-0.118
642.490,-0.119
643.131,-0.118
643.914,-0.118
644.554,-0.118
645.336,-0.117
645.977,-0.116
646.760,-0.116
647.400,-0.115
648.184,-0.114
648.822,-0.114
649.605,-0.114
650.246,-0.115
651.029,-0.114
651.669,-0.113
652.452,-0.113
653.093,-0.113
653.875,-0.112
654.516,-0.112
655.298,-0.112
655.939,-0.111
656.721,-0.110
657.361,-0.110
658.144,-0.110
658.784,-0.110
659.566,-0.110
660.207,-0.109
660.990,-0.108
661.631,-0.108
662.413,-0.108
663.053,-0.109
663.836,-0.108
664.477,-0.107
665.259,-0.106
665.899,-0.107
666.682,-0.107
667.322,-0.106
668.105,-0.106
668.745,-0.106
669.527,-0.105
670.169,-0.105
670.950,-0.105
671.592,-0.105
672.374,-0.104
673.015,-0.104
673.798,-0.104
674.438,-0.104
675.220,-0.104
675.860,-0.103
676.643,-0.103
677.284,-0.103
678.066,-0.102
678.707,-0.102
679.489,-0.102
680.130,-0.102
680.913,-0.102
681.552,-0.101
682.336,-0.101
682.976,-0.101
683.758,-0.101
684.398,-0.100
685.182,-0.100
685.822,-0.100
686.604,-0.100
687.245,-0.100
688.028,-0.100
688.668,-0.099
689.450,-0.098
690.091,-0.099
690.874,-0.098
691.513,-0.098
692.296,-0.098
692.936,-0.098
693.719,-0.098
694.360,-0.098
695.143,-0.097
695.783,-0.097
696.566,-0.097
697.206,-0.097
697.989,-0.097
698.628,-0.097
699.412,-0.097
700.051,-0.097
700.834,-0.097
701.475,-0.096
702.258,-0.096
702.897,-0.096
703.680,-0.095
704.322,-0.096
705.104,-0.095
705.745,-0.095
706.527,-0.095
707.166,-0.095
707.950,-0.094
708.590,-0.094
709.373,-0.094
710.013,-0.094
710.795,-0.093
711.436,-0.094
712.219,-0.094
712.859,-0.094
713.642,-0.093
714.282,-0.093
715.065,-0.092
715.705,-0.093
716.487,-0.092
717.128,-0.092
717.910,-0.092
718.551,-0.092
719.334,-0.092
719.974,-0.092
720.757,-0.092
721.398,-0.092
722.180,-0.091
722.819,-0.091
723.603,-0.091
724.243,-0.091
725.026,-0.091
725.666,-0.091
726.448,-0.090
727.089,-0.090
727.872,-0.090
728.513,-0.090
729.295,-0.090
729.936,-0.090
730.718,-0.090
731.358,-0.090
732.140,-0.090
732.781,-0.089
733.564,-0.089
734.204,-0.089
734.987,-0.089
735.627,-0.089
736.410,-0.089
737.051,-0.089
737.834,-0.088
738.474,-0.088
739.256,-0.089
739.896,-0.089
740.680,-0.088
741.319,-0.088
742.102,-0.088
742.742,-0.087
743.525,-0.087
744.166,-0.087
744.948,-0.087
745.589,-0.087
746.371,-0.087
747.011,-0.087
747.795,-0.087
748.435,-0.087
749.217,-0.086
749.857,-0.086
750.640,-0.086
751.281,-0.086
752.063,-0.085
752.703,-0.086
753.486,-0.086
754.127,-0.085
754.910,-0.086
755.550,-0.086
756.332,-0.085
756.972,-0.086
757.755,-0.085
758.395,-0.084
759.178,-0.085
759.819,-0.085
760.601,-0.084
761.242,-0.084
762.024,-0.084
762.665,-0.085
763.448,-0.084
764.087,-0.084
764.870,-0.084
765.510,-0.084
766.293,-0.084
766.934,-0.083
767.716,-0.084
768.357,-0.084
769.139,-0.083
769.780,-0.083
770.562,-0.083
771.202,-0.083
771.985,-0.083
772.625,-0.083
773.408,-0.083
774.049,-0.083
774.831,-0.083
775.473,-0.082
776.255,-0.082
776.896,-0.083
777.678,-0.082
778.317,-0.082
779.100,-0.082
779.741,-0.082
780.523,-0.082
781.163,-0.082
781.947,-0.081
782.587,-0.082
783.370,-0.081
784.010,-0.081
784.792,-0.081
785.433,-0.081
786.215,-0.081
786.856,-0.081
787.638,-0.081
788.279,-0.080
789.061,-0.080
789.702,-0.080
790.485,-0.080
791.125,-0.081
791.908,-0.080
792.547,-0.080
793.330,-0.080
793.971,-0.080
794.753,-0.080
795.394,-0.079
796.177,-0.079
796.817,-0.080
797.599,-0.079
798.241,-0.080
799.023,-0.079
799.663,-0.079
800.445,-0.079
801.086,-0.079
801.869,-0.079
802.509,-0.079
803.292,-0.078
803.932,-0.078
804.715,-0.078
805.356,-0.078
806.138,-0.078
806.778,-0.078
807.561,-0.077
808.202,-0.078
808.984,-0.078
809.624,-0.078
810.406,-0.078
811.048,-0.078
811.829,-0.077
812.470,-0.078
813.253,-0.077
813.893,-0.077
814.676,-0.077
815.316,-0.077
816.099,-0.077
816.739,-0.077
817.521,-0.077
818.162,-0.077
818.945,-0.077
819.586,-0.076
820.368,-0.077
821.009,-0.076
821.792,-0.076
822.431,-0.076
823.214,-0.076
823.854,-0.076
824.636,-0.075
825.277,-0.076
826.060,-0.076
826.701,-0.076
827.484,-0.075
828.124,-0.074
828.906,-0.075
829.545,-0.074
830.329,-0.075
830.969,-0.075
831.752,-0.076
832.393,-0.075
833.175,-0.075
833.816,-0.075
834.598,-0.075
835.239,-0.074
836.022,-0.074
836.661,-0.075
837.444,-0.073
838.084,-0.073
838.867,-0.073
839.508,-0.074
840.290,-0.074
840.931,-0.074
841.713,-0.073
842.353,-0.074
843.136,-0.073
843.776,-0.074
844.560,-0.073
845.199,-0.073
845.982,-0.073
846.622,-0.073
847.405,-0.073
848.046,-0.073
848.828,-0.073
849.469,-0.072
850.251,-0.073
850.892,-0.072
851.674,-0.073
852.314,-0.072
853.097,-0.072
853.737,-0.072
854.520,-0.072
855.162,-0.072
855.944,-0.071
856.584,-0.072
857.366,-0.072
858.006,-0.072
858.789,-0.071
859.430,-0.072
860.212,-0.071
860.852,-0.071
861.635,-0.071
862.276,-0.071
863.058,-0.071
863.698,-0.071
864.482,-0.071
865.121,-0.070
865.905,-0.070
866.545,-0.070
867.327,-0.071
867.967,-0.071
868.750,-0.070
869.391,-0.071
870.174,-0.069
