room_temperature(K),290.15
water_volume(mL),500.0
solute_molarmass(g/mol),74.551
solute_mass(g),29.9935
R1(Omega),9.51
R2(Omega),9.5
t1(s),566.591
t2(s),1012.743
current(A),1.43
time(s),Delta_T(K)
0.559,-0.000
1.341,0.001
1.982,0.001
2.766,-0.000
3.406,0.001
4.188,0.001
4.829,0.001
5.612,0.001
6.251,0.001
7.033,0.001
7.674,0.001
8.456,0.001
9.097,-0.000
9.880,0.002
10.521,0.002
11.303,0.002
11.943,0.002
12.726,0.002
13.366,0.002
14.149,0.002
14.789,0.002
15.572,0.003
16.213,0.002
16.995,0.003
17.636,0.003
18.418,0.002
19.058,0.002
19.841,0.002
20.481,0.003
21.264,0.003
21.905,0.004
22.687,0.004
23.328,0.003
24.111,0.003
24.750,0.004
25.533,0.003
26.173,0.004
26.956,0.003
27.596,0.004
28.380,0.004
29.020,0.004
29.803,0.004
30.442,0.004
31.226,0.004
31.866,0.004
32.648,0.004
33.289,0.004
34.071,0.004
34.711,0.004
35.494,0.005
36.135,0.005
36.918,0.005
37.557,0.004
38.341,0.005
38.980,0.006
39.763,0.004
40.403,0.005
41.186,0.005
41.827,0.005
42.610,0.006
43.250,0.006
44.032,0.005
44.673,0.006
45.455,0.006
46.095,0.006
46.879,0.006
47.519,0.006
48.301,0.006
48.941,0.006
49.724,0.006
50.364,0.006
51.147,0.007
51.787,0.007
52.570,0.007
53.211,0.007
53.994,0.007
54.633,0.007
55.417,0.007
56.056,0.007
56.839,0.007
57.481,0.007
58.262,0.007
58.902,0.008
59.686,0.008
60.325,0.008
61.109,0.007
61.748,0.007
62.531,0.008
63.171,0.008
63.954,0.008
64.595,0.008
65.377,0.008
66.018,0.008
66.800,0.008
67.441,0.008
68.224,0.009
68.863,0.008
69.646,0.008
70.287,0.008
71.069,0.008
71.710,0.009
72.493,0.009
73.132,0.009
73.916,0.009
74.556,0.009
75.338,0.008
75.978,0.009
76.760,0.009
77.402,0.010
78.184,0.009
78.825,0.009
79.608,0.009
80.248,0.010
81.032,0.010
81.670,0.009
82.453,0.010
83.094,0.010
83.877,0.010
84.517,0.010
85.300,0.010
85.940,0.010
86.723,0.010
87.362,0.011
88.146,0.010
88.785,0.011
89.568,0.011
90.209,0.011
90.991,0.011
91.632,0.011
92.415,0.011
93.055,0.011
93.838,0.011
94.477,0.011
95.260,0.011
95.900,0.011
96.684,0.011
97.324,0.011
98.107,0.012
98.747,0.012
99.530,0.011
100.170,0.011
100.952,0.012
101.593,0.012
102.376,0.012
103.016,0.012
103.799,0.012
104.439,0.012
105.222,0.012
105.862,0.012
106.644,0.013
107.285,0.013
108.067,0.013
108.708,0.013
109.490,0.013
110.131,0.013
110.913,0.013
111.554,0.013
112.337,0.013
112.977,0.013
113.760,0.013
114.400,0.013
115.182,0.014
115.823,0.014
116.605,0.014
117.245,0.014
118.029,0.014
118.668,0.014
119.452,0.014
120.092,0.014
120.875,0.014
121.515,0.014
122.298,0.014
122.937,0.015
123.722,0.014
124.361,0.014
125.143,0.015
125.784,0.015
126.567,0.015
127.207,0.014
127.990,0.015
128.631,0.014
129.413,0.015
130.053,0.015
130.835,0.015
131.476,0.015
132.258,0.015
132.899,0.015
133.681,0.016
134.322,0.015
135.104,0.015
135.744,0.016
136.528,0.016
137.168,0.016
137.951,0.016
138.591,0.016
139.373,0.016
140.014,0.015
140.796,0.017
141.437,0.016
142.220,0.016
142.860,0.016
143.642,0.017
144.284,0.016
145.066,0.016
145.706,0.017
146.489,0.017
147.129,0.017
147.912,0.018
148.552,0.017
149.334,0.017
149.975,0.017
150.757,0.014
151.398,0.011
152.181,-0.003
152.822,-0.019
153.604,-0.083
154.244,-0.131
155.027,-0.234
155.667,-0.286
156.462,-0.394
157.102,-0.450
157.885,-0.563
158.525,-0.617
159.307,-0.727
159.948,-0.781
160.730,-0.883
161.370,-0.931
162.154,-1.025
162.794,-1.071
163.576,-1.163
164.217,-1.208
165.000,-1.298
165.640,-1.341
166.434,-1.428
167.075,-1.471
167.858,-1.555
168.497,-1.595
169.280,-1.673
169.921,-1.712
170.703,-1.787
171.344,-1.824
172.126,-1.894
172.767,-1.929
173.549,-1.996
174.189,-2.030
174.973,-2.096
175.613,-2.128
176.395,-2.192
177.036,-2.223
177.819,-2.284
178.459,-2.312
179.253,-2.370
179.894,-2.398
180.676,-2.452
181.317,-2.478
182.100,-2.528
182.740,-2.553
183.522,-2.601
184.163,-2.624
184.946,-2.668
185.585,-2.691
186.368,-2.734
187.009,-2.754
187.792,-2.794
188.431,-2.814
189.215,-2.851
189.854,-2.869
190.637,-2.905
191.277,-2.922
192.060,-2.955
192.701,-2.971
193.484,-3.003
194.124,-3.018
194.907,-3.047
195.547,-3.062
196.329,-3.090
196.970,-3.104
197.753,-3.130
198.393,-3.142
199.176,-3.166
199.815,-3.178
200.599,-3.201
201.238,-3.212
202.021,-3.234
202.662,-3.244
203.444,-3.265
204.084,-3.273
204.867,-3.292
205.508,-3.302
206.291,-3.319
206.931,-3.327
207.713,-3.344
208.354,-3.351
209.149,-3.367
209.788,-3.374
210.572,-3.389
211.212,-3.396
211.994,-3.409
212.634,-3.415
213.418,-3.429
214.058,-3.435
214.840,-3.447
215.480,-3.452
216.264,-3.464
216.904,-3.468
217.686,-3.479
218.326,-3.485
219.109,-3.495
219.749,-3.499
220.533,-3.509
221.172,-3.513
221.956,-3.523
222.595,-3.527
223.378,-3.536
224.019,-3.539
224.801,-3.547
225.442,-3.551
226.225,-3.558
226.864,-3.563
227.648,-3.570
228.287,-3.573
229.070,-3.580
229.711,-3.584
230.493,-3.590
231.134,-3.593
231.916,-3.600
232.556,-3.603
233.340,-3.609
233.980,-3.612
234.762,-3.619
235.403,-3.621
236.185,-3.627
236.826,-3.629
237.609,-3.635
238.249,-3.637
239.031,-3.643
239.672,-3.645
240.454,-3.650
241.094,-3.652
241.878,-3.657
242.518,-3.660
243.300,-3.664
243.941,-3.666
244.724,-3.672
245.363,-3.674
246.146,-3.679
246.787,-3.681
247.569,-3.685
248.209,-3.687
248.993,-3.691
249.633,-3.694
250.416,-3.698
251.057,-3.700
251.838,-3.704
252.479,-3.707
253.261,-3.710
253.902,-3.713
254.685,-3.717
255.325,-3.719
256.108,-3.723
256.747,-3.724
257.530,-3.728
258.171,-3.730
258.954,-3.734
259.593,-3.736
260.377,-3.740
261.017,-3.741
261.800,-3.745
262.439,-3.747
263.222,-3.750
263.863,-3.752
264.645,-3.756
265.286,-3.758
266.068,-3.761
266.709,-3.763
267.492,-3.766
268.132,-3.767
268.914,-3.770
269.555,-3.772
270.337,-3.775
270.978,-3.777
271.760,-3.780
272.401,-3.781
273.183,-3.785
273.823,-3.787
274.606,-3.789
275.246,-3.790
276.030,-3.793
276.670,-3.795
277.452,-3.798
278.092,-3.799
278.876,-3.802
279.516,-3.804
280.299,-3.806
280.939,-3.807
281.721,-3.810
282.362,-3.812
283.145,-3.814
283.784,-3.816
284.567,-3.819
285.208,-3.820
285.990,-3.823
286.631,-3.825
287.413,-3.827
288.053,-3.828
288.836,-3.831
289.476,-3.832
290.259,-3.835
290.899,-3.837
291.682,-3.840
292.323,-3.840
293.105,-3.844
293.746,-3.845
294.529,-3.848
295.168,-3.849
295.952,-3.851
296.591,-3.852
297.374,-3.854
298.014,-3.855
298.797,-3.858
299.437,-3.859
300.220,-3.861
300.861,-3.862
301.643,-3.864
302.283,-3.865
303.066,-3.867
303.707,-3.868
304.489,-3.870
305.130,-3.871
305.913,-3.873
306.552,-3.874
307.334,-3.876
307.975,-3.877
308.758,-3.878
309.398,-3.879
310.181,-3.881
310.822,-3.882
311.604,-3.884
312.244,-3.885
313.027,-3.886
313.667,-3.887
314.450,-3.888
315.090,-3.888
315.873,-3.890
316.514,-3.891
317.296,-3.893
317.936,-3.893
318.719,-3.895
319.359,-3.895
320.142,-3.896
320.783,-3.897
321.566,-3.898
322.205,-3.898
322.988,-3.899
323.628,-3.900
324.411,-3.901
325.052,-3.902
325.834,-3.903
326.475,-3.904
327.257,-3.904
327.897,-3.904
328.680,-3.905
329.321,-3.905
330.103,-3.907
330.744,-3.908
331.526,-3.908
332.166,-3.908
332.949,-3.910
333.590,-3.909
334.373,-3.911
335.012,-3.911
335.794,-3.911
336.435,-3.912
337.218,-3.913
337.858,-3.912
338.641,-3.914
339.281,-3.914
340.064,-3.914
340.704,-3.915
341.487,-3.915
342.128,-3.915
342.909,-3.916
343.550,-3.916
344.333,-3.916
344.973,-3.917
345.756,-3.917
346.396,-3.918
347.179,-3.918
347.819,-3.919
348.601,-3.918
349.242,-3.919
350.025,-3.919
350.666,-3.919
351.448,-3.919
352.088,-3.919
352.870,-3.920
353.511,-3.920
354.293,-3.920
354.935,-3.921
355.717,-3.921
356.357,-3.921
357.140,-3.921
357.780,-3.921
358.562,-3.922
359.203,-3.922
359.985,-3.922
360.627,-3.922
361.408,-3.922
362.049,-3.922
362.832,-3.922
363.472,-3.922
364.255,-3.922
364.895,-3.922
365.678,-3.923
366.318,-3.923
367.101,-3.922
367.741,-3.923
368.524,-3.923
369.164,-3.923
369.947,-3.923
370.586,-3.922
371.369,-3.923
372.010,-3.923
372.793,-3.923
373.432,-3.923
374.216,-3.923
374.856,-3.923
375.638,-3.922
376.279,-3.922
377.062,-3.922
377.702,-3.922
378.485,-3.922
379.125,-3.922
379.907,-3.922
380.548,-3.923
381.331,-3.922
381.971,-3.922
382.754,-3.922
383.394,-3.922
384.176,-3.921
384.817,-3.922
385.599,-3.922
386.240,-3.922
387.023,-3.922
387.662,-3.922
388.445,-3.922
389.086,-3.922
389.870,-3.921
390.509,-3.921
391.291,-3.921
391.932,-3.921
392.714,-3.920
393.355,-3.920
394.138,-3.921
394.778,-3.921
395.560,-3.920
396.201,-3.920
396.983,-3.920
397.623,-3.920
398.406,-3.919
399.047,-3.920
399.829,-3.920
400.471,-3.919
401.252,-3.919
401.893,-3.919
402.675,-3.919
403.316,-3.919
404.098,-3.918
404.739,-3.918
405.521,-3.918
406.162,-3.918
406.945,-3.917
407.584,-3.917
408.367,-3.917
409.008,-3.918
409.790,-3.916
410.430,-3.917
411.213,-3.917
411.853,-3.917
412.636,-3.916
413.276,-3.916
414.059,-3.916
414.699,-3.915
415.482,-3.915
416.122,-3.915
416.906,-3.916
417.545,-3.915
418.328,-3.915
418.968,-3.914
419.751,-3.914
420.391,-3.914
421.174,-3.914
421.815,-3.914
422.598,-3.913
423.237,-3.913
424.021,-3.914
424.660,-3.913
425.443,-3.913
426.083,-3.913
426.866,-3.913
427.506,-3.912
428.289,-3.912
428.929,-3.912
429.713,-3.911
430.352,-3.911
431.135,-3.911
431.776,-3.911
432.558,-3.911
433.199,-3.911
433.981,-3.910
434.621,-3.910
435.404,-3.910
436.044,-3.910
436.826,-3.909
437.467,-3.909
438.250,-3.909
438.890,-3.909
439.673,-3.909
440.312,-3.909
441.096,-3.908
441.736,-3.908
442.519,-3.908
443.159,-3.907
443.942,-3.907
444.582,-3.907
445.365,-3.907
446.004,-3.907
446.787,-3.906
447.428,-3.907
448.210,-3.906
448.852,-3.906
449.634,-3.905
450.275,-3.906
451.057,-3.905
451.697,-3.905
452.479,-3.905
453.120,-3.905
453.903,-3.905
454.543,-3.904
455.326,-3.904
455.966,-3.903
456.749,-3.904
457.388,-3.903
458.171,-3.903
458.813,-3.904
459.594,-3.903
460.236,-3.903
461.017,-3.902
461.659,-3.903
462.442,-3.902
463.081,-3.901
463.864,-3.901
464.504,-3.901
465.287,-3.901
465.928,-3.900
466.710,-3.900
467.350,-3.901
468.133,-3.900
468.773,-3.901
469.555,-3.900
470.195,-3.899
470.978,-3.899
471.619,-3.899
472.401,-3.899
473.042,-3.899
473.825,-3.899
474.465,-3.899
475.247,-3.898
475.887,-3.897
476.670,-3.897
477.311,-3.898
478.093,-3.897
478.734,-3.897
479.517,-3.897
480.157,-3.897
480.939,-3.896
481.580,-3.896
482.362,-3.896
483.003,-3.896
483.785,-3.895
484.426,-3.895
485.209,-3.895
485.848,-3.895
486.631,-3.895
487.272,-3.894
488.054,-3.895
488.695,-3.894
489.477,-3.894
490.118,-3.893
490.900,-3.893
491.541,-3.893
492.323,-3.893
492.964,-3.893
493.746,-3.892
494.387,-3.892
495.170,-3.892
495.810,-3.892
496.592,-3.892
497.232,-3.892
498.015,-3.891
498.655,-3.891
499.438,-3.891
500.078,-3.891
500.861,-3.891
501.501,-3.890
502.285,-3.890
502.924,-3.890
503.707,-3.890
504.348,-3.890
505.130,-3.890
505.770,-3.889
506.553,-3.889
507.193,-3.888
507.976,-3.889
508.617,-3.888
509.399,-3.888
510.039,-3.887
510.822,-3.888
511.463,-3.888
512.245,-3.887
512.886,-3.887
513.669,-3.887
514.308,-3.887
515.091,-3.886
515.731,-3.886
516.514,-3.886
517.155,-3.885
517.936,-3.885
518.576,-3.885
519.360,-3.885
520.000,-3.885
520.782,-3.885
521.423,-3.884
522.206,-3.884
522.846,-3.884
523.629,-3.884
524.269,-3.883
525.051,-3.883
525.692,-3.883
526.475,-3.883
527.115,-3.883
527.898,-3.882
528.538,-3.882
529.321,-3.883
529.961,-3.883
530.743,-3.882
531.384,-3.881
532.166,-3.881
532.807,-3.881
533.589,-3.881
534.230,-3.881
535.013,-3.880
535.653,-3.881
536.435,-3.881
537.075,-3.880
537.858,-3.879
538.498,-3.879
539.282,-3.879
539.923,-3.879
540.705,-3.879
541.344,-3.879
542.127,-3.878
542.768,-3.878
543.550,-3.878
544.191,-3.879
544.974,-3.877
545.614,-3.878
546.397,-3.878
547.037,-3.877
547.820,-3.876
548.459,-3.877
549.242,-3.876
549.883,-3.877
550.666,-3.876
551.304,-3.876
552.089,-3.876
552.728,-3.875
553.511,-3.875
554.152,-3.875
554.934,-3.875
555.575,-3.875
556.358,-3.874
556.997,-3.874
557.781,-3.874
558.420,-3.874
559.203,-3.874
559.843,-3.874
560.627,-3.873
561.266,-3.873
562.050,-3.873
562.689,-3.873
563.472,-3.873
564.112,-3.872
564.894,-3.872
565.536,-3.872
566.318,-3.872
566.959,-3.871
567.741,-3.871
568.381,-3.871
569.163,-3.871
569.804,-3.871
570.587,-3.870
571.227,-3.869
572.009,-3.869
572.650,-3.868
573.432,-3.867
574.073,-3.868
574.855,-3.866
575.496,-3.866
576.278,-3.864
576.919,-3.864
577.702,-3.862
578.342,-3.861
579.125,-3.859
579.765,-3.857
580.547,-3.856
581.188,-3.855
581.970,-3.853
582.611,-3.852
583.393,-3.849
584.034,-3.847
584.817,-3.844
585.456,-3.843
586.239,-3.841
586.879,-3.839
587.662,-3.836
588.303,-3.834
589.086,-3.830
589.726,-3.829
590.508,-3.824
591.148,-3.822
591.931,-3.818
592.571,-3.817
593.354,-3.812
593.995,-3.810
594.777,-3.806
595.417,-3.804
596.201,-3.799
596.840,-3.797
597.623,-3.792
598.263,-3.789
599.046,-3.784
599.686,-3.781
600.469,-3.777
601.108,-3.774
601.892,-3.769
602.532,-3.766
603.315,-3.761
603.955,-3.758
604.738,-3.753
605.378,-3.750
606.161,-3.745
606.801,-3.742
607.584,-3.736
608.224,-3.733
609.007,-3.726
609.647,-3.724
610.430,-3.717
611.069,-3.715
611.853,-3.708
612.492,-3.705
613.275,-3.699
613.916,-3.696
614.699,-3.690
615.339,-3.686
616.121,-3.679
616.762,-3.676
617.545,-3.670
618.184,-3.667
618.967,-3.659
619.607,-3.656
620.390,-3.650
621.031,-3.646
621.813,-3.639
622.453,-3.635
623.237,-3.628
623.876,-3.624
624.660,-3.618
625.300,-3.615
626.082,-3.608
626.723,-3.604
627.505,-3.598
628.145,-3.594
628.928,-3.587
629.568,-3.583
630.351,-3.576
630.991,-3.573
631.774,-3.565
632.414,-3.561
633.197,-3.554
633.837,-3.550
634.619,-3.542
635.260,-3.540
636.042,-3.531
636.683,-3.528
637.466,-3.521
638.106,-3.517
638.889,-3.510
639.528,-3.507
640.311,-3.499
640.952,-3.495
641.734,-3.488
642.375,-3.484
643.157,-3.477
643.798,-3.473
644.581,-3.466
645.221,-3.462
646.003,-3.454
646.643,-3.450
647.426,-3.442
648.067,-3.439
648.849,-3.432
649.490,-3.427
650.272,-3.420
650.912,-3.415
651.695,-3.408
652.335,-3.404
653.118,-3.396
653.759,-3.392
654.541,-3.384
655.182,-3.381
655.964,-3.372
656.604,-3.369
657.386,-3.361
658.027,-3.357
658.797,-3.349
659.438,-3.345
660.221,-3.337
660.862,-3.334
661.644,-3.325
662.285,-3.322
663.067,-3.314
663.707,-3.311
664.489,-3.302
665.130,-3.299
665.912,-3.291
666.553,-3.287
667.335,-3.279
667.976,-3.276
668.759,-3.267
669.399,-3.264
670.182,-3.256
670.822,-3.252
671.604,-3.244
672.245,-3.241
673.028,-3.233
673.668,-3.229
674.450,-3.221
675.091,-3.217
675.873,-3.209
676.513,-3.205
677.297,-3.197
677.937,-3.193
678.719,-3.186
679.360,-3.182
680.142,-3.174
680.782,-3.170
681.565,-3.162
682.206,-3.159
682.988,-3.151
683.628,-3.147
684.410,-3.140
685.050,-3.135
685.833,-3.126
686.474,-3.123
687.257,-3.114
687.897,-3.110
688.680,-3.102
689.319,-3.098
690.102,-3.090
690.743,-3.085
691.526,-3.077
692.166,-3.073
692.949,-3.066
693.588,-3.061
694.371,-3.054
695.012,-3.049
695.794,-3.042
696.434,-3.038
697.218,-3.030
697.858,-3.026
698.641,-3.017
699.281,-3.014
700.063,-3.005
700.704,-3.001
701.486,-2.993
702.127,-2.989
702.909,-2.982
703.549,-2.977
704.332,-2.969
704.973,-2.965
705.755,-2.957
706.396,-2.954
707.178,-2.945
707.818,-2.941
708.600,-2.933
709.241,-2.929
710.024,-2.922
710.664,-2.918
711.447,-2.910
712.087,-2.906
712.870,-2.899
713.510,-2.895
714.293,-2.886
714.933,-2.882
715.716,-2.875
716.356,-2.871
717.138,-2.863
717.779,-2.858
718.561,-2.850
719.201,-2.847
719.984,-2.839
720.625,-2.834
721.407,-2.827
722.047,-2.823
722.831,-2.815
723.470,-2.811
724.252,-2.803
724.893,-2.799
725.676,-2.791
726.317,-2.787
727.100,-2.778
727.739,-2.774
728.521,-2.766
729.162,-2.762
729.945,-2.754
730.585,-2.750
731.368,-2.742
732.007,-2.738
732.791,-2.730
733.431,-2.726
734.214,-2.717
734.853,-2.713
735.637,-2.706
736.276,-2.702
737.059,-2.694
737.699,-2.689
738.482,-2.681
739.123,-2.677
739.905,-2.670
740.545,-2.665
741.328,-2.657
741.968,-2.653
742.752,-2.646
743.391,-2.642
744.174,-2.633
744.814,-2.629
745.597,-2.621
746.237,-2.617
747.020,-2.610
747.660,-2.605
748.443,-2.597
749.083,-2.593
749.866,-2.586
750.506,-2.582
751.289,-2.573
751.929,-2.569
752.712,-2.561
753.352,-2.557
754.135,-2.549
754.774,-2.545
755.557,-2.537
756.197,-2.533
756.981,-2.526
757.621,-2.522
758.403,-2.513
759.043,-2.510
759.826,-2.501
760.467,-2.497
761.249,-2.489
761.889,-2.485
762.672,-2.477
763.312,-2.473
764.095,-2.465
764.735,-2.461
765.517,-2.452
766.158,-2.449
766.940,-2.440
767.580,-2.436
768.364,-2.429
769.004,-2.425
769.787,-2.416
770.426,-2.412
771.209,-2.404
771.849,-2.400
772.633,-2.391
773.273,-2.388
774.055,-2.379
774.695,-2.376
775.478,-2.367
776.118,-2.363
776.901,-2.356
777.530,-2.351
778.312,-2.343
778.952,-2.338
779.734,-2.331
780.375,-2.327
781.159,-2.319
781.799,-2.315
782.581,-2.307
783.221,-2.303
784.004,-2.295
784.644,-2.291
785.426,-2.283
786.066,-2.279
786.850,-2.271
787.490,-2.267
788.272,-2.259
788.913,-2.255
789.695,-2.247
790.335,-2.242
791.118,-2.235
791.759,-2.231
792.541,-2.223
793.181,-2.219
793.964,-2.211
794.604,-2.207
795.387,-2.198
796.027,-2.195
796.810,-2.186
797.450,-2.182
798.232,-2.175
798.874,-2.170
799.656,-2.162
800.295,-2.159
801.078,-2.150
801.719,-2.146
802.501,-2.138
803.142,-2.134
803.924,-2.126
804.565,-2.122
805.347,-2.115
805.988,-2.110
806.770,-2.102
807.411,-2.098
808.193,-2.090
808.833,-2.086
809.616,-2.078
810.256,-2.073
811.038,-2.065
811.679,-2.062
812.461,-2.053
813.102,-2.049
813.885,-2.042
814.524,-2.038
815.307,-2.030
815.948,-2.026
816.731,-2.018
817.370,-2.014
818.154,-2.007
818.794,-2.003
819.576,-1.995
820.216,-1.991
820.999,-1.983
821.639,-1.979
822.422,-1.971
823.062,-1.966
823.845,-1.958
824.485,-1.953
825.268,-1.946
825.908,-1.941
826.691,-1.933
827.330,-1.929
828.113,-1.922
828.754,-1.917
829.537,-1.909
830.177,-1.906
830.959,-1.898
831.599,-1.893
832.382,-1.885
833.023,-1.882
833.806,-1.873
834.445,-1.869
835.228,-1.861
835.868,-1.857
836.651,-1.849
837.291,-1.845
838.074,-1.837
838.714,-1.832
839.497,-1.824
840.136,-1.820
840.920,-1.812
841.560,-1.808
842.343,-1.801
842.983,-1.797
843.765,-1.788
844.406,-1.785
845.189,-1.777
845.828,-1.772
846.612,-1.764
847.251,-1.760
848.034,-1.752
848.674,-1.748
849.458,-1.739
850.097,-1.735
850.879,-1.728
851.521,-1.724
852.303,-1.715
852.942,-1.711
853.725,-1.704
854.365,-1.699
855.148,-1.690
855.789,-1.686
856.572,-1.679
857.211,-1.674
857.995,-1.666
858.634,-1.663
859.417,-1.655
860.058,-1.650
860.840,-1.643
861.480,-1.639
862.263,-1.631
862.902,-1.627
863.685,-1.619
864.326,-1.615
865.108,-1.607
865.749,-1.603
866.532,-1.595
867.172,-1.591
867.955,-1.583
868.595,-1.579
869.378,-1.571
870.017,-1.567
870.800,-1.558
871.440,-1.554
872.223,-1.546
872.862,-1.543
873.645,-1.535
874.286,-1.531
875.069,-1.523
875.710,-1.519
876.492,-1.510
877.132,-1.506
877.914,-1.499
878.555,-1.494
879.338,-1.487
879.977,-1.483
880.760,-1.475
881.401,-1.470
882.184,-1.462
882.822,-1.458
883.605,-1.450
884.246,-1.446
885.029,-1.438
885.669,-1.434
886.453,-1.426
887.092,-1.423
887.875,-1.415
888.515,-1.410
889.297,-1.403
889.938,-1.398
890.721,-1.390
891.361,-1.386
892.144,-1.379
892.783,-1.374
893.566,-1.366
894.206,-1.362
894.977,-1.354
895.617,-1.350
896.400,-1.342
897.041,-1.338
897.823,-1.330
898.463,-1.326
899.246,-1.318
899.886,-1.314
900.670,-1.306
901.309,-1.302
902.092,-1.294
902.732,-1.289
903.514,-1.282
904.154,-1.278
904.937,-1.270
905.577,-1.266
906.361,-1.258
907.001,-1.254
907.783,-1.246
908.423,-1.242
909.206,-1.234
909.847,-1.230
910.629,-1.222
911.269,-1.218
912.051,-1.210
912.692,-1.206
913.474,-1.198
914.114,-1.194
914.896,-1.185
915.538,-1.181
916.320,-1.173
916.960,-1.169
917.743,-1.161
918.383,-1.157
919.167,-1.149
919.805,-1.145
920.588,-1.138
921.229,-1.134
922.012,-1.126
922.651,-1.121
923.434,-1.114
924.074,-1.110
924.857,-1.102
925.498,-1.097
926.280,-1.091
926.920,-1.086
927.703,-1.079
928.343,-1.074
929.126,-1.066
929.766,-1.063
930.549,-1.054
931.189,-1.050
931.972,-1.042
932.612,-1.038
933.394,-1.031
934.035,-1.026
934.817,-1.018
935.457,-1.014
936.240,-1.006
936.881,-1.002
937.663,-0.993
938.303,-0.990
939.086,-0.982
939.726,-0.978
940.509,-0.970
941.149,-0.966
941.932,-0.958
942.572,-0.953
943.354,-0.945
943.994,-0.941
944.776,-0.933
945.418,-0.929
946.200,-0.921
946.840,-0.917
947.622,-0.909
948.264,-0.906
949.046,-0.898
949.686,-0.894
950.468,-0.886
951.109,-0.882
951.891,-0.874
952.532,-0.869
953.314,-0.862
953.955,-0.857
954.737,-0.850
955.378,-0.845
956.161,-0.838
956.800,-0.833
957.582,-0.826
958.223,-0.822
959.006,-0.813
959.646,-0.810
960.429,-0.801
961.069,-0.798
961.852,-0.790
962.491,-0.786
963.274,-0.778
963.915,-0.774
964.697,-0.766
965.337,-0.761
966.120,-0.753
966.761,-0.749
967.544,-0.742
968.183,-0.738
968.966,-0.729
969.606,-0.725
970.389,-0.717
971.029,-0.713
971.811,-0.705
972.452,-0.702
973.234,-0.694
973.874,-0.690
974.657,-0.682
975.298,-0.678
976.081,-0.670
976.720,-0.666
977.503,-0.659
978.143,-0.655
978.926,-0.646
979.565,-0.642
980.349,-0.633
980.989,-0.630
981.771,-0.622
982.411,-0.618
983.195,-0.610
983.835,-0.606
984.617,-0.598
985.258,-0.594
986.040,-0.586
986.680,-0.582
987.463,-0.574
988.103,-0.570
988.886,-0.562
989.526,-0.559
990.308,-0.550
990.949,-0.546
991.732,-0.538
992.372,-0.535
993.153,-0.527
993.794,-0.523
994.577,-0.515
995.217,-0.511
995.999,-0.503
996.640,-0.499
997.423,-0.491
998.062,-0.487
998.845,-0.478
999.486,-0.474
1000.268,-0.466
1000.908,-0.461
1001.691,-0.454
1002.331,-0.450
1003.115,-0.443
1003.754,-0.439
1004.537,-0.431
1005.177,-0.426
1005.960,-0.418
1006.599,-0.414
1007.382,-0.406
1008.023,-0.402
1008.806,-0.394
1009.445,-0.389
1010.228,-0.382
1010.868,-0.378
1011.651,-0.370
1012.291,-0.366
1013.074,-0.359
1013.714,-0.355
1014.485,-0.347
1015.126,-0.342
1015.908,-0.334
1016.548,-0.330
1017.330,-0.324
1017.971,-0.318
1018.753,-0.311
1019.393,-0.308
1020.177,-0.301
1020.816,-0.296
1021.598,-0.290
1022.240,-0.286
1023.022,-0.279
1023.662,-0.276
1024.444,-0.269
1025.085,-0.266
1025.867,-0.259
1026.508,-0.256
1027.290,-0.250
1027.930,-0.246
1028.713,-0.241
1029.353,-0.238
1030.136,-0.232
1030.777,-0.229
1031.559,-0.223
1032.199,-0.221
1032.982,-0.215
1033.622,-0.212
1034.404,-0.208
1035.044,-0.206
1035.827,-0.201
1036.468,-0.199
1037.250,-0.195
1037.890,-0.193
1038.673,-0.189
1039.314,-0.187
1040.097,-0.183
1040.735,-0.181
1041.518,-0.177
1042.159,-0.175
1042.942,-0.172
1043.582,-0.170
1044.364,-0.167
1045.005,-0.165
1045.787,-0.163
1046.427,-0.160
1047.211,-0.158
1047.850,-0.156
1048.633,-0.153
1049.273,-0.151
1050.056,-0.149
1050.696,-0.148
1051.478,-0.145
1052.119,-0.144
1052.901,-0.142
1053.542,-0.140
1054.324,-0.138
1054.965,-0.137
1055.747,-0.134
1056.387,-0.133
1057.170,-0.131
1057.810,-0.131
1058.593,-0.128
1059.233,-0.127
1060.015,-0.125
1060.656,-0.124
1061.439,-0.122
1062.079,-0.121
1062.861,-0.120
1063.502,-0.119
1064.284,-0.117
1064.924,-0.117
1065.707,-0.115
1066.347,-0.114
1067.130,-0.113
1067.769,-0.112
1068.552,-0.110
1069.192,-0.110
1069.975,-0.108
1070.615,-0.108
1071.398,-0.106
1072.038,-0.106
1072.820,-0.104
1073.461,-0.104
1074.243,-0.103
1074.885,-0.102
1075.667,-0.101
1076.306,-0.101
1077.089,-0.100
1077.729,-0.099
1078.512,-0.098
1079.152,-0.097
1079.935,-0.096
1080.576,-0.096
1081.358,-0.095
1081.998,-0.094
1082.780,-0.093
1083.421,-0.093
1084.203,-0.091
1084.844,-0.091
1085.626,-0.091
1086.267,-0.090
1087.049,-0.089
1087.689,-0.088
1088.471,-0.087
1089.113,-0.088
1089.895,-0.087
1090.534,-0.087
1091.317,-0.086
1091.957,-0.086
1092.741,-0.085
1093.380,-0.084
1094.163,-0.083
1094.804,-0.084
1095.586,-0.082
1096.226,-0.081
1097.009,-0.082
1097.649,-0.081
1098.432,-0.081
1099.072,-0.080
1099.854,-0.080
1100.494,-0.080
1101.276,-0.079
1101.917,-0.078
1102.701,-0.078
1103.339,-0.078
1104.122,-0.077
1104.764,-0.076
1105.546,-0.075
1106.185,-0.075
1106.968,-0.075
1107.609,-0.075
1108.391,-0.075
1109.030,-0.074
1109.814,-0.073
1110.454,-0.073
1111.237,-0.073
1111.877,-0.072
1112.659,-0.073
1113.300,-0.072
1114.083,-0.071
1114.722,-0.071
1115.505,-0.071
1116.145,-0.071
1116.928,-0.069
1117.568,-0.070
1118.351,-0.069
1118.991,-0.069
1119.774,-0.069
1120.413,-0.069
1121.196,-0.068
1121.836,-0.068
1122.620,-0.067
1123.259,-0.068
1124.041,-0.068
1124.682,-0.067
1125.465,-0.067
1126.105,-0.067
1126.888,-0.066
1127.528,-0.065
1128.311,-0.065
1128.950,-0.064
1129.734,-0.065
1130.374,-0.064
1131.157,-0.064
1131.796,-0.065
1132.579,-0.064
1133.219,-0.064
1134.001,-0.063
1134.642,-0.063
1135.424,-0.063
1136.065,-0.063
1136.847,-0.062
1137.488,-0.062
1138.270,-0.062
1138.910,-0.062
1139.693,-0.062
1140.333,-0.061
1141.116,-0.061
1141.755,-0.061
1142.538,-0.061
1143.178,-0.060
1143.962,-0.060
1144.602,-0.061
1145.384,-0.059
1146.025,-0.060
1146.807,-0.059
1147.447,-0.059
1148.229,-0.059
1148.870,-0.058
1149.653,-0.059
1150.293,-0.059
1151.075,-0.059
1151.716,-0.058
1152.498,-0.058
1153.138,-0.058
1153.921,-0.058
1154.562,-0.057
1155.344,-0.057
1155.984,-0.057
1156.766,-0.056
1157.407,-0.056
1158.189,-0.056
1158.830,-0.056
1159.613,-0.055
1160.252,-0.056
1161.035,-0.055
1161.676,-0.055
1162.458,-0.055
1163.098,-0.054
1163.880,-0.054
1164.521,-0.054
1165.303,-0.054
1165.943,-0.054
1166.725,-0.054
1167.366,-0.054
1168.149,-0.054
1168.789,-0.054
1169.572,-0.053
1170.212,-0.053
1170.994,-0.053
1171.634,-0.053
1172.417,-0.053
1173.058,-0.053
1173.840,-0.052
1174.480,-0.052
1175.263,-0.052
1175.904,-0.052
1176.686,-0.052
1177.326,-0.051
1178.108,-0.051
1178.749,-0.051
1179.532,-0.051
1180.172,-0.050
1180.955,-0.051
1181.594,-0.051
1182.378,-0.050
1183.018,-0.050
1183.800,-0.050
1184.440,-0.050
1185.223,-0.049
1185.863,-0.050
1186.645,-0.049
1187.285,-0.050
1188.068,-0.049
1188.709,-0.049
1189.491,-0.048
1190.131,-0.049
1190.913,-0.049
1191.554,-0.049
1192.336,-0.049
1192.977,-0.049
1193.759,-0.048
1194.400,-0.048
1195.182,-0.048
1195.822,-0.047
1196.605,-0.048
1197.245,-0.047
1198.029,-0.047
1198.667,-0.048
1199.450,-0.047
1200.091,-0.047
1200.873,-0.047
1201.513,-0.047
1202.295,-0.047
1202.937,-0.046
1203.719,-0.046
1204.359,-0.045
1205.141,-0.046
1205.782,-0.046
1206.564,-0.045
1207.204,-0.046
1207.987,-0.045
1208.628,-0.045
1209.411,-0.045
1210.050,-0.045
1210.832,-0.045
1211.473,-0.044
1212.255,-0.044
1212.896,-0.044
1213.678,-0.044
1214.319,-0.044
1215.102,-0.044
1215.741,-0.044
1216.524,-0.044
1217.164,-0.044
1217.947,-0.044
1218.587,-0.043
1219.370,-0.044
1220.009,-0.043
1220.792,-0.042
1221.432,-0.043
1222.215,-0.043
1222.854,-0.042
1223.638,-0.042
1224.278,-0.043
1225.061,-0.042
1225.700,-0.042
1226.483,-0.042
1227.123,-0.041
1227.906,-0.042
1228.546,-0.042
1229.329,-0.042
1229.969,-0.042
1230.752,-0.040
1231.392,-0.042
1232.175,-0.041
1232.815,-0.041
1233.597,-0.040
1234.237,-0.040
1235.020,-0.040
1235.660,-0.039
1236.444,-0.040
1237.083,-0.040
1237.866,-0.040
1238.506,-0.040
1239.288,-0.040
1239.929,-0.039
1240.711,-0.040
1241.352,-0.039
1242.134,-0.039
1242.774,-0.039
1243.556,-0.039
1244.196,-0.039
1244.979,-0.039
1245.620,-0.039
1246.402,-0.039
1247.043,-0.038
1247.824,-0.038
1248.465,-0.038
1249.248,-0.038
1249.888,-0.038
1250.670,-0.038
1251.311,-0.038
1252.093,-0.037
1252.733,-0.038
1253.516,-0.038
1254.157,-0.038
1254.939,-0.038
1255.579,-0.038
1256.362,-0.037
1257.002,-0.037
1257.785,-0.037
1258.424,-0.037
1259.207,-0.037
1259.848,-0.037
1260.630,-0.037
1261.271,-0.036
1262.053,-0.036
1262.693,-0.036
1263.475,-0.036
1264.115,-0.036
1264.898,-0.036
1265.538,-0.035
1266.321,-0.035
1266.962,-0.035
1267.744,-0.036
1268.384,-0.036
1269.166,-0.035
1269.807,-0.035
1270.590,-0.035
1271.230,-0.035
1272.012,-0.034
1272.652,-0.035
1273.435,-0.034
1274.075,-0.034
1274.858,-0.034
1275.498,-0.034
1276.281,-0.033
1276.921,-0.033
1277.703,-0.034
1278.343,-0.033
1279.127,-0.033
1279.766,-0.034
1280.549,-0.033
1281.189,-0.033
1281.972,-0.033
1282.612,-0.034
1283.394,-0.033
1284.035,-0.033
